# Experimental Silicon Lattice Constants
# Source: https://doi.org/10.1063/1.333965
# Temperature [K] Lattice Parameter (Angstrom)
100  5.429670		
200  5.429977
300  5.431092
400  5.432677
500  5.434537
600  5.436557
700  5.438685
800  5.440882
900  5.443130
1000 5.445423
1100 5.447754
1200 5.450121
1300 5.452514
1400 5.454943
1500 5.457403